 frequency       db(vout)        180*cph(vout)/pi
 1.00000000e+00  5.93667348e+01 -6.21027300e-03 
 1.12201845e+00  5.93667348e+01 -6.96804090e-03 
 1.25892541e+00  5.93667347e+01 -7.81827047e-03 
 1.41253754e+00  5.93667347e+01 -8.77224374e-03 
 1.58489319e+00  5.93667347e+01 -9.84261934e-03 
 1.77827941e+00  5.93667347e+01 -1.10436005e-02 
 1.99526231e+00  5.93667346e+01 -1.23911235e-02 
 2.23872114e+00  5.93667346e+01 -1.39030692e-02 
 2.51188643e+00  5.93667345e+01 -1.55995002e-02 
 2.81838293e+00  5.93667344e+01 -1.75029269e-02 
 3.16227766e+00  5.93667343e+01 -1.96386069e-02 
 3.54813389e+00  5.93667342e+01 -2.20348791e-02 
 3.98107171e+00  5.93667340e+01 -2.47235407e-02 
 4.46683592e+00  5.93667338e+01 -2.77402685e-02 
 5.01187234e+00  5.93667335e+01 -3.11250925e-02 
 5.62341325e+00  5.93667332e+01 -3.49229273e-02 
 6.30957344e+00  5.93667328e+01 -3.91841676e-02 
 7.07945784e+00  5.93667323e+01 -4.39653574e-02 
 7.94328235e+00  5.93667316e+01 -4.93299399e-02 
 8.91250938e+00  5.93667308e+01 -5.53490994e-02 
 1.00000000e+01  5.93667297e+01 -6.21027059e-02 
 1.12201845e+01  5.93667284e+01 -6.96803751e-02 
 1.25892541e+01  5.93667267e+01 -7.81826568e-02 
 1.41253754e+01  5.93667247e+01 -8.77223696e-02 
 1.58489319e+01  5.93667220e+01 -9.84260977e-02 
 1.77827941e+01  5.93667187e+01 -1.10435870e-01 
 1.99526231e+01  5.93667145e+01 -1.23911044e-01 
 2.23872114e+01  5.93667093e+01 -1.39030423e-01 
 2.51188643e+01  5.93667027e+01 -1.55994621e-01 
 2.81838293e+01  5.93666943e+01 -1.75028731e-01 
 3.16227766e+01  5.93666839e+01 -1.96385309e-01 
 3.54813389e+01  5.93666707e+01 -2.20347718e-01 
 3.98107171e+01  5.93666541e+01 -2.47233891e-01 
 4.46683592e+01  5.93666332e+01 -2.77400543e-01 
 5.01187234e+01  5.93666068e+01 -3.11247900e-01 
 5.62341325e+01  5.93665737e+01 -3.49225000e-01 
 6.30957344e+01  5.93665320e+01 -3.91835641e-01 
 7.07945784e+01  5.93664795e+01 -4.39645049e-01 
 7.94328235e+01  5.93664133e+01 -4.93287357e-01 
 8.91250938e+01  5.93663301e+01 -5.53473984e-01 
 1.00000000e+02  5.93662253e+01 -6.21003033e-01 
 1.12201845e+02  5.93660934e+01 -6.96769813e-01 
 1.25892541e+02  5.93659273e+01 -7.81778630e-01 
 1.41253754e+02  5.93657183e+01 -8.77155985e-01 
 1.58489319e+02  5.93654551e+01 -9.84165335e-01 
 1.77827941e+02  5.93651238e+01 -1.10422361e+00 
 1.99526231e+02  5.93647068e+01 -1.23891963e+00 
 2.23872114e+02  5.93641818e+01 -1.39003472e+00 
 2.51188643e+02  5.93635210e+01 -1.55956555e+00 
 2.81838293e+02  5.93626893e+01 -1.74974969e+00 
 3.16227766e+02  5.93616424e+01 -1.96309378e+00 
 3.54813389e+02  5.93603248e+01 -2.20240483e+00 
 3.98107171e+02  5.93586667e+01 -2.47082452e+00 
 4.46683592e+02  5.93565801e+01 -2.77186693e+00 
 5.01187234e+02  5.93539546e+01 -3.10945939e+00 
 5.62341325e+02  5.93506516e+01 -3.48798666e+00 
 6.30957344e+02  5.93464970e+01 -3.91233777e+00 
 7.07945784e+02  5.93412722e+01 -4.38795514e+00 
 7.94328235e+02  5.93347035e+01 -4.92088457e+00 
 8.91250938e+02  5.93264482e+01 -5.51782445e+00 
 1.00000000e+03  5.93160776e+01 -6.18617132e+00 
 1.12201845e+03  5.93030569e+01 -6.93405771e+00 
 1.25892541e+03  5.92867201e+01 -7.77037646e+00 
 1.41253754e+03  5.92662403e+01 -8.70478347e+00 
 1.58489319e+03  5.92405943e+01 -9.74766771e+00 
 1.77827941e+03  5.92085218e+01 -1.09100741e+01 
 1.99526231e+03  5.91684788e+01 -1.22035603e+01 
 2.23872114e+03  5.91185870e+01 -1.36399649e+01 
 2.51188643e+03  5.90565811e+01 -1.52310603e+01 
 2.81838293e+03  5.89797585e+01 -1.69880613e+01 
 3.16227766e+03  5.88849375e+01 -1.89209659e+01 
 3.54813389e+03  5.87684354e+01 -2.10377112e+01 
 3.98107171e+03  5.86260766e+01 -2.33431515e+01 
 4.46683592e+03  5.84532480e+01 -2.58379018e+01 
 5.01187234e+03  5.82450149e+01 -2.85171367e+01 
 5.62341325e+03  5.79963096e+01 -3.13695001e+01 
 6.30957344e+03  5.77021925e+01 -3.43763286e+01 
 7.07945784e+03  5.73581731e+01 -3.75114232e+01 
 7.94328235e+03  5.69605578e+01 -4.07415669e+01 
 8.91250938e+03  5.65067756e+01 -4.40278870e+01 
 1.00000000e+04  5.59956263e+01 -4.73279940e+01 
 1.12201845e+04  5.54274017e+01 -5.05986435e+01 
 1.25892541e+04  5.48038559e+01 -5.37985313e+01 
 1.41253754e+04  5.41280302e+01 -5.68907934e+01 
 1.58489319e+04  5.34039683e+01 -5.98448641e+01 
 1.77827941e+04  5.26363756e+01 -6.26375094e+01 
 1.99526231e+04  5.18302767e+01 -6.52530369e+01 
 2.23872114e+04  5.09907148e+01 -6.76828291e+01 
 2.51188643e+04  5.01225180e+01 -6.99244194e+01 
 2.81838293e+04  4.92301398e+01 -7.19803380e+01 
 3.16227766e+04  4.83175682e+01 -7.38569157e+01 
 3.54813389e+04  4.73882904e+01 -7.55631729e+01 
 3.98107171e+04  4.64452981e+01 -7.71098668e+01 
 4.46683592e+04  4.54911187e+01 -7.85087223e+01 
 5.01187234e+04  4.45278606e+01 -7.97718430e+01 
 5.62341325e+04  4.35572662e+01 -8.09112833e+01 
 6.30957344e+04  4.25807630e+01 -8.19387521e+01 
 7.07945784e+04  4.15995138e+01 -8.28654236e+01 
 7.94328235e+04  4.06144603e+01 -8.37018266e+01 
 8.91250938e+04  3.96263623e+01 -8.44577933e+01 
 1.00000000e+05  3.86358307e+01 -8.51424500e+01 
 1.12201845e+05  3.76433551e+01 -8.57642360e+01 
 1.25892541e+05  3.66493269e+01 -8.63309421e+01 
 1.41253754e+05  3.56540582e+01 -8.68497610e+01 
 1.58489319e+05  3.46577974e+01 -8.73273444e+01 
 1.77827941e+05  3.36607411e+01 -8.77698641e+01 
 1.99526231e+05  3.26630447e+01 -8.81830743e+01 
 2.23872114e+05  3.16648299e+01 -8.85723743e+01 
 2.51188643e+05  3.06661911e+01 -8.89428697e+01 
 2.81838293e+05  2.96672005e+01 -8.92994334e+01 
 3.16227766e+05  2.86679116e+01 -8.96467649e+01 
 3.54813389e+05  2.76683622e+01 -8.99894487e+01 
 3.98107171e+05  2.66685761e+01 -9.03320127e+01 
 4.46683592e+05  2.56685647e+01 -9.06789854e+01 
 5.01187234e+05  2.46683274e+01 -9.10349542e+01 
 5.62341325e+05  2.36678517e+01 -9.14046242e+01 
 6.30957344e+05  2.26671123e+01 -9.17928785e+01 
 7.07945784e+05  2.16660700e+01 -9.22048404e+01 
 7.94328235e+05  2.06646696e+01 -9.26459377e+01 
 8.91250938e+05  1.96628371e+01 -9.31219704e+01 
 1.00000000e+06  1.86604755e+01 -9.36391810e+01 
 1.12201845e+06  1.76574602e+01 -9.42043288e+01 
 1.25892541e+06  1.66536327e+01 -9.48247671e+01 
 1.41253754e+06  1.56487921e+01 -9.55085235e+01 
 1.58489319e+06  1.46426853e+01 -9.62643824e+01 
 1.77827941e+06  1.36349945e+01 -9.71019679e+01 
 1.99526231e+06  1.26253221e+01 -9.80318240e+01 
 2.23872114e+06  1.16131713e+01 -9.90654896e+01 
 2.51188643e+06  1.05979242e+01 -1.00215560e+02 
 2.81838293e+06  9.57881472e+00 -1.01495730e+02 
 3.16227766e+06  8.55489670e+00 -1.02920803e+02 
 3.54813389e+06  7.52500826e+00 -1.04506653e+02 
 3.98107171e+06  6.48773158e+00 -1.06270125e+02 
 4.46683592e+06  5.44135067e+00 -1.08228836e+02 
 5.01187234e+06  4.38380974e+00 -1.10400861e+02 
 5.62341325e+06  3.31267742e+00 -1.12804275e+02 
 6.30957344e+06  2.22512435e+00 -1.15456512e+02 
 7.07945784e+06  1.11792512e+00 -1.18373533e+02 
 7.94328235e+06 -1.25019831e-02 -1.21568809e+02 
 8.91250938e+06 -1.17000142e+00 -1.25052156e+02 
 1.00000000e+07 -2.35851828e+00 -1.28828511e+02 
 1.12201845e+07 -3.58185744e+00 -1.32896807e+02 
 1.25892541e+07 -4.84336511e+00 -1.37249124e+02 
 1.41253754e+07 -6.14555044e+00 -1.41870337e+02 
 1.58489319e+07 -7.48968507e+00 -1.46738421e+02 
 1.77827941e+07 -8.87543547e+00 -1.51825453e+02 
 1.99526231e+07 -1.03005909e+01 -1.57099202e+02 
 2.23872114e+07 -1.17609423e+01 -1.62524998e+02 
 2.51188643e+07 -1.32503452e+01 -1.68067492e+02 
 2.81838293e+07 -1.47609708e+01 -1.73691927e+02 
 3.16227766e+07 -1.62837204e+01 -1.79364681e+02 
 3.54813389e+07 -1.78087590e+01 -1.85053091e+02 
 3.98107171e+07 -1.93261165e+01 -1.90724782e+02 
 4.46683592e+07 -2.08263010e+01 -1.96346904e+02 
 5.01187234e+07 -2.23008694e+01 -2.01885695e+02 
 5.62341325e+07 -2.37429027e+01 -2.07306697e+02 
 6.30957344e+07 -2.51473345e+01 -2.12575722e+02 
 7.07945784e+07 -2.65111016e+01 -2.17660451e+02 
 7.94328235e+07 -2.78331044e+01 -2.22532317e+02 
 8.91250938e+07 -2.91139989e+01 -2.27168283e+02 
 1.00000000e+08 -3.03558673e+01 -2.31552149e+02 
 1.12201845e+08 -3.15618287e+01 -2.35675200e+02 
 1.25892541e+08 -3.27356500e+01 -2.39536151e+02 
 1.41253754e+08 -3.38814041e+01 -2.43140523e+02 
 1.58489319e+08 -3.50032008e+01 -2.46499641e+02 
 1.77827941e+08 -3.61050007e+01 -2.49629451e+02 
 1.99526231e+08 -3.71905047e+01 -2.52549342e+02 
 2.23872114e+08 -3.82631076e+01 -2.55281055e+02 
 2.51188643e+08 -3.93258993e+01 -2.57847772e+02 
 2.81838293e+08 -4.03817002e+01 -2.60273360e+02 
 3.16227766e+08 -4.14331180e+01 -2.62581780e+02 
 3.54813389e+08 -4.24826178e+01 -2.64796606e+02 
 3.98107171e+08 -4.35325968e+01 -2.66940608e+02 
 4.46683592e+08 -4.45854603e+01 -2.69035357e+02 
 5.01187234e+08 -4.56436914e+01 -2.71100792e+02 
 5.62341325e+08 -4.67099081e+01 -2.73154708e+02 
 6.30957344e+08 -4.77869008e+01 -2.75212135e+02 
 7.07945784e+08 -4.88776369e+01 -2.77284595e+02 
 7.94328235e+08 -4.99852223e+01 -2.79379257e+02 
 8.91250938e+08 -5.11128037e+01 -2.81498061e+02 
 1.00000000e+09 -5.22634017e+01 -2.83636912e+02 
 1.12201845e+09 -5.34396677e+01 -2.85785154e+02 
 1.25892541e+09 -5.46435712e+01 -2.87925517e+02 
 1.41253754e+09 -5.58760396e+01 -2.90034805e+02 
 1.58489319e+09 -5.71365969e+01 -2.92085499e+02 
 1.77827941e+09 -5.84230609e+01 -2.94048350e+02 
 1.99526231e+09 -5.97313703e+01 -2.95895787e+02 
 2.23872114e+09 -6.10556014e+01 -2.97605780e+02 
 2.51188643e+09 -6.23882034e+01 -2.99165546e+02 
 2.81838293e+09 -6.37204376e+01 -3.00574444e+02 
 3.16227766e+09 -6.50429589e+01 -3.01845479e+02 
 3.54813389e+09 -6.63464444e+01 -3.03005064e+02 
 3.98107171e+09 -6.76221591e+01 -3.04091017e+02 
 4.46683592e+09 -6.88623643e+01 -3.05149117e+02 
 5.01187234e+09 -7.00605144e+01 -3.06228755e+02 
 5.62341325e+09 -7.12112354e+01 -3.07378367e+02 
 6.30957344e+09 -7.23101303e+01 -3.08641243e+02 
 7.07945784e+09 -7.33534967e+01 -3.10052161e+02 
 7.94328235e+09 -7.43380483e+01 -3.11635056e+02 
 8.91250938e+09 -7.52607299e+01 -3.13401742e+02 
 1.00000000e+10 -7.61186788e+01 -3.15351615e+02 
 1.12201845e+10 -7.69093458e+01 -3.17472196e+02 
 1.25892541e+10 -7.76307454e+01 -3.19740421e+02 
 1.41253754e+10 -7.82817649e+01 -3.22124609e+02 
 1.58489319e+10 -7.88624517e+01 -3.24586994e+02 
 1.77827941e+10 -7.93741972e+01 -3.27086634e+02 
 1.99526231e+10 -7.98197717e+01 -3.29582440e+02 
 2.23872114e+10 -8.02031967e+01 -3.32035948e+02 
 2.51188643e+10 -8.05294874e+01 -3.34413533e+02 
 2.81838293e+10 -8.08043163e+01 -3.36687854e+02 
 3.16227766e+10 -8.10336601e+01 -3.38838471e+02 
 3.54813389e+10 -8.12234800e+01 -3.40851737e+02 
 3.98107171e+10 -8.13794676e+01 -3.42720155e+02 
 4.46683592e+10 -8.15068685e+01 -3.44441421e+02 
 5.01187234e+10 -8.16103800e+01 -3.46017336e+02 
 5.62341325e+10 -8.16941118e+01 -3.47452759e+02 
 6.30957344e+10 -8.17615911e+01 -3.48754658e+02 
 7.07945784e+10 -8.18157988e+01 -3.49931331e+02 
 7.94328235e+10 -8.18592227e+01 -3.50991789e+02 
 8.91250938e+10 -8.18939179e+01 -3.51945287e+02 
 1.00000000e+11 -8.19215675e+01 -3.52801001e+02 
 1.12201845e+11 -8.19435415e+01 -3.53567792e+02 
 1.25892541e+11 -8.19609479e+01 -3.54254074e+02 
 1.41253754e+11 -8.19746800e+01 -3.54867722e+02 
 1.58489319e+11 -8.19854551e+01 -3.55416044e+02 
 1.77827941e+11 -8.19938487e+01 -3.55905764e+02 
 1.99526231e+11 -8.20003227e+01 -3.56343042e+02 
 2.23872114e+11 -8.20052487e+01 -3.56733486e+02 
 2.51188643e+11 -8.20089270e+01 -3.57082188e+02 
 2.81838293e+11 -8.20116020e+01 -3.57393748e+02 
 3.16227766e+11 -8.20134738e+01 -3.57672302e+02 
 3.54813389e+11 -8.20147066e+01 -3.57921557e+02 
 3.98107171e+11 -8.20154357e+01 -3.58144823e+02 
 4.46683592e+11 -8.20157716e+01 -3.58345046e+02 
 5.01187234e+11 -8.20158039e+01 -3.58524849e+02 
 5.62341325e+11 -8.20156045e+01 -3.58686565e+02 
 6.30957344e+11 -8.20152303e+01 -3.58832275e+02 
 7.07945784e+11 -8.20147255e+01 -3.58963832e+02 
 7.94328235e+11 -8.20141237e+01 -3.59082892e+02 
 8.91250938e+11 -8.20134488e+01 -3.59190927e+02 
 1.00000000e+12 -8.20127149e+01 -3.59289253e+02 
